z [cm]       C [muM]     Rates [nmol/(cm^3 s)]
0.000e+000 3.370e+001 -3.083e-008
2.273e-001 2.374e+001 -3.083e-008
4.545e-001 1.603e+001 -2.783e-008
6.818e-001 1.037e+001 -2.453e-008
9.091e-001 6.492e+000 -2.060e-008
1.136e+000 4.125e+000 -1.599e-008
1.364e+000 2.927e+000 -1.108e-008
1.591e+000 2.539e+000 -6.462e-009
1.818e+000 2.625e+000 -2.685e-009
2.045e+000 2.907e+000 -6.220e-011
2.273e+000 3.193e+000 1.370e-009
2.500e+000 3.380e+000 1.803e-009
2.727e+000 3.434e+000 1.559e-009
2.955e+000 3.374e+000 9.795e-010
3.182e+000 3.243e+000 3.497e-010
3.409e+000 3.086e+000 -1.473e-010
3.636e+000 2.940e+000 -4.324e-010
3.864e+000 2.825e+000 -5.092e-010
4.091e+000 2.748e+000 -4.313e-010
4.318e+000 2.703e+000 -2.704e-010
4.545e+000 2.677e+000 -9.238e-011
4.773e+000 2.658e+000 5.518e-011
5.000e+000 2.634e+000 1.460e-010
5.227e+000 2.600e+000 1.714e-010
5.455e+000 2.554e+000 1.351e-010
5.682e+000 2.498e+000 4.791e-011
5.909e+000 2.438e+000 -7.446e-011
6.136e+000 2.384e+000 -2.123e-010
6.364e+000 2.345e+000 -3.420e-010
6.591e+000 2.331e+000 -4.382e-010
6.818e+000 2.349e+000 -4.788e-010
7.045e+000 2.403e+000 -4.524e-010
7.273e+000 2.489e+000 -3.641e-010
7.500e+000 2.602e+000 -2.314e-010
7.727e+000 2.732e+000 -7.648e-011
7.955e+000 2.868e+000 7.842e-011
8.182e+000 2.997e+000 2.134e-010
8.409e+000 3.112e+000 3.116e-010
8.636e+000 3.203e+000 3.605e-010
8.864e+000 3.268e+000 3.550e-010
9.091e+000 3.307e+000 3.020e-010
9.318e+000 3.324e+000 2.212e-010
9.545e+000 3.325e+000 1.389e-010
9.773e+000 3.315e+000 7.844e-011
1.000e+001 3.300e+000 5.471e-011
1.023e+001 3.281e+000 7.021e-011
1.045e+001 3.257e+000 1.156e-010
1.068e+001 3.224e+000 1.730e-010
1.091e+001 3.179e+000 2.210e-010
1.114e+001 3.117e+000 2.405e-010
1.136e+001 3.038e+000 2.182e-010
1.159e+001 2.943e+000 1.465e-010
1.182e+001 2.837e+000 2.467e-011
1.205e+001 2.730e+000 -1.396e-010
1.227e+001 2.632e+000 -3.270e-010
1.250e+001 2.559e+000 -5.055e-010
1.273e+001 2.522e+000 -6.342e-010
1.295e+001 2.532e+000 -6.731e-010
1.318e+001 2.591e+000 -5.979e-010
1.341e+001 2.694e+000 -4.132e-010
1.364e+001 2.827e+000 -1.513e-010
1.386e+001 2.971e+000 1.381e-010
1.409e+001 3.105e+000 3.991e-010
1.432e+001 3.210e+000 5.823e-010
1.455e+001 3.273e+000 6.559e-010
1.477e+001 3.287e+000 6.154e-010
1.500e+001 3.256e+000 4.850e-010
1.523e+001 3.190e+000 3.050e-010
1.545e+001 3.101e+000 1.167e-010
1.568e+001 3.004e+000 -4.704e-011
1.591e+001 2.911e+000 -1.661e-010
1.614e+001 2.829e+000 -2.330e-010
1.636e+001 2.765e+000 -2.502e-010
1.659e+001 2.719e+000 -2.289e-010
1.682e+001 2.689e+000 -1.862e-010
1.705e+001 2.674e+000 -1.420e-010
1.727e+001 2.668e+000 -1.119e-010
1.750e+001 2.671e+000 -1.023e-010
1.773e+001 2.681e+000 -1.087e-010
1.795e+001 2.700e+000 -1.174e-010
1.818e+001 2.726e+000 -1.114e-010
1.841e+001 2.761e+000 -7.834e-011
1.864e+001 2.802e+000 -1.914e-011
1.886e+001 2.844e+000 4.664e-011
1.909e+001 2.883e+000 8.309e-011
1.932e+001 2.916e+000 4.809e-011
1.955e+001 2.945e+000 -9.188e-011
1.977e+001 2.981e+000 -3.456e-010
2.000e+001 3.042e+000 -6.839e-010
2.023e+001 3.153e+000 -1.034e-009
2.045e+001 3.340e+000 -1.286e-009
2.068e+001 3.621e+000 -1.313e-009
2.091e+001 3.997e+000 -9.983e-010
2.114e+001 4.447e+000 -2.595e-010
2.136e+001 4.916e+000 9.347e-010
2.159e+001 5.317e+000 2.547e-009
2.182e+001 5.531e+000 4.470e-009
2.205e+001 5.418e+000 6.553e-009
2.227e+001 4.826e+000 8.664e-009
2.250e+001 3.600e+000 8.664e-009
