z [cm]       C [muM]     Rates [nmol/(cm^3 s)]
0.000e+000 6.000e-001 6.852e-010
2.020e-001 1.910e+000 6.852e-010
4.040e-001 3.121e+000 6.658e-010
6.061e-001 4.237e+000 6.455e-010
8.081e-001 5.258e+000 6.236e-010
1.010e+000 6.190e+000 5.992e-010
1.212e+000 7.036e+000 5.716e-010
1.414e+000 7.799e+000 5.402e-010
1.616e+000 8.484e+000 5.045e-010
1.818e+000 9.096e+000 4.641e-010
2.020e+000 9.641e+000 4.189e-010
2.222e+000 1.013e+001 3.690e-010
2.424e+000 1.056e+001 3.146e-010
2.626e+000 1.094e+001 2.562e-010
2.828e+000 1.129e+001 1.943e-010
3.030e+000 1.161e+001 1.297e-010
3.232e+000 1.192e+001 6.319e-011
3.434e+000 1.221e+001 -4.197e-012
3.636e+000 1.250e+001 -7.155e-011
3.838e+000 1.281e+001 -1.379e-010
4.040e+000 1.313e+001 -2.024e-010
4.242e+000 1.348e+001 -2.640e-010
4.444e+000 1.387e+001 -3.221e-010
4.646e+000 1.431e+001 -3.759e-010
4.848e+000 1.480e+001 -4.248e-010
5.051e+000 1.536e+001 -4.683e-010
5.253e+000 1.598e+001 -5.061e-010
5.455e+000 1.667e+001 -5.378e-010
5.657e+000 1.744e+001 -5.633e-010
5.859e+000 1.830e+001 -5.824e-010
6.061e+000 1.923e+001 -5.952e-010
6.263e+000 2.026e+001 -6.018e-010
6.465e+000 2.137e+001 -6.022e-010
6.667e+000 2.256e+001 -5.967e-010
6.869e+000 2.385e+001 -5.856e-010
7.071e+000 2.521e+001 -5.692e-010
7.273e+000 2.666e+001 -5.479e-010
7.475e+000 2.819e+001 -5.221e-010
7.677e+000 2.980e+001 -4.921e-010
7.879e+000 3.147e+001 -4.585e-010
8.081e+000 3.321e+001 -4.217e-010
8.283e+000 3.501e+001 -3.822e-010
8.485e+000 3.687e+001 -3.403e-010
8.687e+000 3.878e+001 -2.966e-010
8.889e+000 4.073e+001 -2.516e-010
9.091e+000 4.271e+001 -2.056e-010
9.293e+000 4.473e+001 -1.590e-010
9.495e+000 4.677e+001 -1.123e-010
9.697e+000 4.882e+001 -6.560e-011
9.899e+000 5.088e+001 -1.931e-011
1.010e+001 5.295e+001 2.639e-011
1.030e+001 5.501e+001 7.130e-011
1.051e+001 5.707e+001 1.153e-010
1.071e+001 5.910e+001 1.583e-010
1.091e+001 6.112e+001 2.001e-010
1.111e+001 6.310e+001 2.407e-010
1.131e+001 6.505e+001 2.801e-010
1.152e+001 6.696e+001 3.180e-010
1.172e+001 6.882e+001 3.545e-010
1.192e+001 7.063e+001 3.894e-010
1.212e+001 7.239e+001 4.224e-010
1.232e+001 7.408e+001 4.535e-010
1.253e+001 7.571e+001 4.823e-010
1.273e+001 7.727e+001 5.086e-010
1.293e+001 7.876e+001 5.320e-010
1.313e+001 8.017e+001 5.522e-010
1.333e+001 8.150e+001 5.688e-010
1.354e+001 8.275e+001 5.815e-010
1.374e+001 8.391e+001 5.897e-010
1.394e+001 8.499e+001 5.932e-010
1.414e+001 8.598e+001 5.917e-010
1.434e+001 8.689e+001 5.848e-010
1.455e+001 8.771e+001 5.722e-010
1.475e+001 8.845e+001 5.540e-010
1.495e+001 8.911e+001 5.299e-010
1.515e+001 8.970e+001 5.002e-010
1.535e+001 9.021e+001 4.648e-010
1.556e+001 9.065e+001 4.240e-010
1.576e+001 9.104e+001 3.784e-010
1.596e+001 9.137e+001 3.283e-010
1.616e+001 9.165e+001 2.746e-010
1.636e+001 9.189e+001 2.178e-010
1.657e+001 9.210e+001 1.590e-010
1.677e+001 9.229e+001 9.905e-011
1.697e+001 9.246e+001 3.890e-011
1.717e+001 9.263e+001 -2.048e-011
1.737e+001 9.280e+001 -7.815e-011
1.758e+001 9.298e+001 -1.333e-010
1.778e+001 9.318e+001 -1.853e-010
1.798e+001 9.341e+001 -2.334e-010
1.818e+001 9.367e+001 -2.775e-010
1.838e+001 9.397e+001 -3.173e-010
1.859e+001 9.432e+001 -3.528e-010
1.879e+001 9.472e+001 -3.843e-010
1.899e+001 9.517e+001 -4.122e-010
1.919e+001 9.568e+001 -4.371e-010
1.939e+001 9.626e+001 -4.595e-010
1.960e+001 9.690e+001 -4.803e-010
1.980e+001 9.762e+001 -5.003e-010
2.000e+001 9.840e+001 -5.003e-010
