z [cm]       C [muM]     Rates [nmol/(cm^3 s)]
0.000e+000 5.000e-001 1.328e-011
2.273e-001 6.194e-001 1.328e-011
4.545e-001 7.357e-001 1.882e-012
6.818e-001 8.516e-001 -1.023e-011
9.091e-001 9.698e-001 -2.407e-011
1.136e+000 1.094e+000 -4.109e-011
1.364e+000 1.227e+000 -6.306e-011
1.591e+000 1.376e+000 -9.197e-011
1.818e+000 1.546e+000 -1.298e-010
2.045e+000 1.746e+000 -1.784e-010
2.273e+000 1.989e+000 -2.392e-010
2.500e+000 2.288e+000 -3.133e-010
2.727e+000 2.660e+000 -4.014e-010
2.955e+000 3.127e+000 -5.037e-010
3.182e+000 3.712e+000 -6.196e-010
3.409e+000 4.443e+000 -7.464e-010
3.636e+000 5.350e+000 -8.786e-010
3.864e+000 6.463e+000 -1.006e-009
4.091e+000 7.813e+000 -1.116e-009
4.318e+000 9.425e+000 -1.191e-009
4.545e+000 1.132e+001 -1.214e-009
4.773e+000 1.350e+001 -1.170e-009
5.000e+000 1.595e+001 -1.053e-009
5.227e+000 1.865e+001 -8.634e-010
5.455e+000 2.155e+001 -6.128e-010
5.682e+000 2.460e+001 -3.200e-010
5.909e+000 2.772e+001 -8.663e-012
6.136e+000 3.085e+001 2.956e-010
6.364e+000 3.390e+001 5.685e-010
6.591e+000 3.682e+001 7.903e-010
6.818e+000 3.956e+001 9.479e-010
7.045e+000 4.207e+001 1.037e-009
7.273e+000 4.434e+001 1.062e-009
7.500e+000 4.636e+001 1.035e-009
7.727e+000 4.814e+001 9.693e-010
7.955e+000 4.969e+001 8.812e-010
8.182e+000 5.103e+001 7.831e-010
8.409e+000 5.218e+001 6.841e-010
8.636e+000 5.318e+001 5.899e-010
8.864e+000 5.404e+001 5.029e-010
9.091e+000 5.478e+001 4.242e-010
9.318e+000 5.541e+001 3.542e-010
9.545e+000 5.597e+001 2.931e-010
9.773e+000 5.646e+001 2.410e-010
1.000e+001 5.689e+001 1.971e-010
1.023e+001 5.727e+001 1.601e-010
1.045e+001 5.762e+001 1.283e-010
1.068e+001 5.793e+001 9.956e-011
1.091e+001 5.823e+001 7.225e-011
1.114e+001 5.850e+001 4.527e-011
1.136e+001 5.877e+001 1.856e-011
1.159e+001 5.903e+001 -6.953e-012
1.182e+001 5.929e+001 -2.947e-011
1.205e+001 5.956e+001 -4.666e-011
1.227e+001 5.984e+001 -5.609e-011
1.250e+001 6.013e+001 -5.564e-011
1.273e+001 6.044e+001 -4.405e-011
1.295e+001 6.075e+001 -2.136e-011
1.318e+001 6.108e+001 1.073e-011
1.341e+001 6.140e+001 4.869e-011
1.364e+001 6.170e+001 8.747e-011
1.386e+001 6.199e+001 1.210e-010
1.409e+001 6.225e+001 1.429e-010
1.432e+001 6.247e+001 1.478e-010
1.455e+001 6.267e+001 1.316e-010
1.477e+001 6.282e+001 9.306e-011
1.500e+001 6.296e+001 3.404e-011
1.523e+001 6.309e+001 -4.064e-011
1.545e+001 6.323e+001 -1.234e-010
1.568e+001 6.340e+001 -2.048e-010
1.591e+001 6.362e+001 -2.743e-010
1.614e+001 6.390e+001 -3.216e-010
1.636e+001 6.425e+001 -3.381e-010
1.659e+001 6.469e+001 -3.178e-010
1.682e+001 6.520e+001 -2.589e-010
1.705e+001 6.577e+001 -1.638e-010
1.727e+001 6.638e+001 -3.868e-011
1.750e+001 6.700e+001 1.075e-010
1.773e+001 6.759e+001 2.640e-010
1.795e+001 6.813e+001 4.198e-010
1.818e+001 6.856e+001 5.652e-010
1.841e+001 6.886e+001 6.932e-010
1.864e+001 6.900e+001 8.000e-010
1.886e+001 6.895e+001 8.860e-010
1.909e+001 6.869e+001 9.544e-010
1.932e+001 6.820e+001 1.009e-009
1.955e+001 6.748e+001 1.052e-009
1.977e+001 6.651e+001 1.083e-009
2.000e+001 6.529e+001 1.098e-009
2.023e+001 6.381e+001 1.093e-009
2.045e+001 6.207e+001 1.062e-009
2.068e+001 6.008e+001 1.004e-009
2.091e+001 5.786e+001 9.201e-010
2.114e+001 5.542e+001 8.165e-010
2.136e+001 5.279e+001 7.010e-010
2.159e+001 4.999e+001 5.818e-010
2.182e+001 4.705e+001 4.644e-010
2.205e+001 4.401e+001 3.517e-010
2.227e+001 4.088e+001 2.428e-010
2.250e+001 3.770e+001 2.428e-010
