z [cm]       C [muM]     Rates [nmol/(cm^3 s)]
0.000e+000 2.360e+001 6.658e-009
2.020e-001 3.880e+001 6.658e-009
4.040e-001 5.380e+001 6.348e-009
6.061e-001 6.862e+001 6.026e-009
8.081e-001 8.326e+001 5.681e-009
1.010e+000 9.774e+001 5.304e-009
1.212e+000 1.121e+002 4.887e-009
1.414e+000 1.262e+002 4.425e-009
1.616e+000 1.403e+002 3.913e-009
1.818e+000 1.542e+002 3.352e-009
2.020e+000 1.681e+002 2.743e-009
2.222e+000 1.818e+002 2.093e-009
2.424e+000 1.956e+002 1.409e-009
2.626e+000 2.092e+002 7.022e-010
2.828e+000 2.229e+002 -1.461e-011
3.030e+000 2.365e+002 -7.262e-010
3.232e+000 2.502e+002 -1.416e-009
3.434e+000 2.639e+002 -2.067e-009
3.636e+000 2.776e+002 -2.661e-009
3.838e+000 2.915e+002 -3.181e-009
4.040e+000 3.054e+002 -3.611e-009
4.242e+000 3.194e+002 -3.935e-009
4.444e+000 3.336e+002 -4.140e-009
4.646e+000 3.479e+002 -4.216e-009
4.848e+000 3.623e+002 -4.155e-009
5.051e+000 3.768e+002 -3.950e-009
5.253e+000 3.914e+002 -3.601e-009
5.455e+000 4.061e+002 -3.109e-009
5.657e+000 4.210e+002 -2.480e-009
5.859e+000 4.359e+002 -1.721e-009
6.061e+000 4.508e+002 -8.446e-010
6.263e+000 4.658e+002 1.330e-010
6.465e+000 4.808e+002 1.194e-009
6.667e+000 4.957e+002 2.318e-009
6.869e+000 5.106e+002 3.483e-009
7.071e+000 5.253e+002 4.666e-009
7.273e+000 5.400e+002 5.845e-009
7.475e+000 5.544e+002 6.998e-009
7.677e+000 5.687e+002 8.107e-009
7.879e+000 5.827e+002 9.154e-009
8.081e+000 5.964e+002 1.013e-008
8.283e+000 6.099e+002 1.101e-008
8.485e+000 6.230e+002 1.181e-008
8.687e+000 6.358e+002 1.251e-008
8.889e+000 6.483e+002 1.312e-008
9.091e+000 6.603e+002 1.364e-008
9.293e+000 6.720e+002 1.408e-008
9.495e+000 6.832e+002 1.444e-008
9.697e+000 6.941e+002 1.472e-008
9.899e+000 7.045e+002 1.495e-008
1.010e+001 7.145e+002 1.512e-008
1.030e+001 7.240e+002 1.525e-008
1.051e+001 7.331e+002 1.532e-008
1.071e+001 7.417e+002 1.536e-008
1.091e+001 7.499e+002 1.536e-008
1.111e+001 7.577e+002 1.532e-008
1.131e+001 7.650e+002 1.524e-008
1.152e+001 7.718e+002 1.512e-008
1.172e+001 7.783e+002 1.496e-008
1.192e+001 7.843e+002 1.474e-008
1.212e+001 7.898e+002 1.448e-008
1.232e+001 7.950e+002 1.416e-008
1.253e+001 7.997e+002 1.378e-008
1.273e+001 8.040e+002 1.333e-008
1.293e+001 8.080e+002 1.282e-008
1.313e+001 8.116e+002 1.225e-008
1.333e+001 8.148e+002 1.161e-008
1.354e+001 8.177e+002 1.091e-008
1.374e+001 8.202e+002 1.014e-008
1.394e+001 8.225e+002 9.315e-009
1.414e+001 8.245e+002 8.436e-009
1.434e+001 8.262e+002 7.511e-009
1.455e+001 8.278e+002 6.548e-009
1.475e+001 8.291e+002 5.556e-009
1.495e+001 8.303e+002 4.546e-009
1.515e+001 8.314e+002 3.529e-009
1.535e+001 8.323e+002 2.516e-009
1.556e+001 8.332e+002 1.518e-009
1.576e+001 8.340e+002 5.466e-010
1.596e+001 8.348e+002 -3.878e-010
1.616e+001 8.357e+002 -1.276e-009
1.636e+001 8.365e+002 -2.109e-009
1.657e+001 8.375e+002 -2.880e-009
1.677e+001 8.385e+002 -3.583e-009
1.697e+001 8.396e+002 -4.215e-009
1.717e+001 8.408e+002 -4.772e-009
1.737e+001 8.422e+002 -5.253e-009
1.758e+001 8.437e+002 -5.660e-009
1.778e+001 8.454e+002 -5.995e-009
1.798e+001 8.473e+002 -6.261e-009
1.818e+001 8.493e+002 -6.465e-009
1.838e+001 8.516e+002 -6.612e-009
1.859e+001 8.540e+002 -6.710e-009
1.879e+001 8.566e+002 -6.768e-009
1.899e+001 8.594e+002 -6.795e-009
1.919e+001 8.625e+002 -6.799e-009
1.939e+001 8.657e+002 -6.788e-009
1.960e+001 8.691e+002 -6.770e-009
1.980e+001 8.727e+002 -6.749e-009
2.000e+001 8.765e+002 -6.749e-009
