z [cm]       C [muM]     Rates [nmol/(cm^3 s)]
0.000e+000 2.500e+004 -7.431e-004
5.000e-001 2.447e+004 -7.431e-004
1.000e+000 2.398e+004 -6.986e-004
1.500e+000 2.352e+004 -6.432e-004
2.000e+000 2.309e+004 -5.699e-004
2.500e+000 2.270e+004 -4.762e-004
3.000e+000 2.232e+004 -3.628e-004
3.500e+000 2.196e+004 -2.322e-004
4.000e+000 2.161e+004 -9.019e-005
4.500e+000 2.127e+004 5.064e-005
5.000e+000 2.093e+004 1.707e-004
5.500e+000 2.057e+004 2.508e-004
6.000e+000 2.021e+004 2.785e-004
6.500e+000 1.983e+004 2.473e-004
7.000e+000 1.944e+004 1.540e-004
7.500e+000 1.904e+004 1.629e-006
8.000e+000 1.864e+004 -1.923e-004
8.500e+000 1.825e+004 -3.915e-004
9.000e+000 1.788e+004 -5.480e-004
9.500e+000 1.754e+004 -6.222e-004
1.000e+001 1.722e+004 -6.042e-004
1.050e+001 1.694e+004 -5.192e-004
1.100e+001 1.668e+004 -4.134e-004
1.150e+001 1.644e+004 -3.272e-004
1.200e+001 1.622e+004 -2.758e-004
1.250e+001 1.601e+004 -2.519e-004
1.300e+001 1.581e+004 -2.395e-004
1.350e+001 1.563e+004 -2.254e-004
1.400e+001 1.545e+004 -2.030e-004
1.450e+001 1.529e+004 -1.709e-004
1.500e+001 1.513e+004 -1.277e-004
1.550e+001 1.498e+004 -6.798e-005
1.600e+001 1.483e+004 1.512e-005
1.650e+001 1.468e+004 1.206e-004
1.700e+001 1.453e+004 2.325e-004
1.750e+001 1.437e+004 3.244e-004
1.800e+001 1.419e+004 3.707e-004
1.850e+001 1.399e+004 3.561e-004
1.900e+001 1.377e+004 2.788e-004
1.950e+001 1.354e+004 1.495e-004
2.000e+001 1.330e+004 -1.064e-005
2.050e+001 1.307e+004 -1.721e-004
2.100e+001 1.284e+004 -3.023e-004
2.150e+001 1.263e+004 -3.764e-004
2.200e+001 1.243e+004 -3.846e-004
2.250e+001 1.226e+004 -3.308e-004
2.300e+001 1.210e+004 -2.289e-004
2.350e+001 1.195e+004 -1.008e-004
2.400e+001 1.180e+004 2.645e-005
2.450e+001 1.166e+004 1.289e-004
2.500e+001 1.151e+004 1.938e-004
2.550e+001 1.134e+004 2.205e-004
2.600e+001 1.117e+004 2.156e-004
2.650e+001 1.099e+004 1.883e-004
2.700e+001 1.080e+004 1.474e-004
2.750e+001 1.060e+004 9.924e-005
2.800e+001 1.040e+004 4.749e-005
2.850e+001 1.019e+004 -4.303e-006
2.900e+001 9.986e+003 -5.180e-005
2.950e+001 9.783e+003 -9.205e-005
3.000e+001 9.585e+003 -1.246e-004
3.050e+001 9.392e+003 -1.487e-004
3.100e+001 9.207e+003 -1.631e-004
3.150e+001 9.030e+003 -1.698e-004
3.200e+001 8.861e+003 -1.760e-004
3.250e+001 8.700e+003 -1.858e-004
3.300e+001 8.549e+003 -1.925e-004
3.350e+001 8.406e+003 -1.827e-004
3.400e+001 8.273e+003 -1.480e-004
3.450e+001 8.147e+003 -9.361e-005
3.500e+001 8.026e+003 -3.470e-005
3.550e+001 7.906e+003 1.696e-005
3.600e+001 7.785e+003 6.042e-005
3.650e+001 7.662e+003 9.737e-005
3.700e+001 7.533e+003 1.220e-004
3.750e+001 7.399e+003 1.231e-004
3.800e+001 7.259e+003 9.077e-005
3.850e+001 7.114e+003 1.894e-005
3.900e+001 6.969e+003 -8.953e-005
3.950e+001 6.828e+003 -2.114e-004
4.000e+001 6.697e+003 -3.044e-004
4.050e+001 6.581e+003 -3.324e-004
4.100e+001 6.481e+003 -2.893e-004
4.150e+001 6.395e+003 -1.956e-004
4.200e+001 6.318e+003 -8.016e-005
4.250e+001 6.246e+003 3.215e-005
4.300e+001 6.172e+003 1.238e-004
4.350e+001 6.092e+003 1.858e-004
4.400e+001 6.003e+003 2.167e-004
4.450e+001 5.903e+003 2.184e-004
4.500e+001 5.793e+003 1.901e-004
4.550e+001 5.673e+003 1.268e-004
4.600e+001 5.548e+003 2.414e-005
4.650e+001 5.421e+003 -1.106e-004
4.700e+001 5.299e+003 -2.558e-004
4.750e+001 5.190e+003 -3.853e-004
4.800e+001 5.100e+003 -4.829e-004
4.850e+001 5.033e+003 -5.474e-004
4.900e+001 4.993e+003 -5.882e-004
4.950e+001 4.982e+003 -6.183e-004
5.000e+001 5.000e+003 -6.183e-004
