z [cm]       C [muM]     Rates [nmol/(cm^3 s)]
0.000e+000 1.100e+000 -1.533e-010
2.020e-001 1.002e+000 -1.533e-010
4.040e-001 9.121e-001 -1.546e-010
6.061e-001 8.292e-001 -1.559e-010
8.081e-001 7.539e-001 -1.572e-010
1.010e+000 6.861e-001 -1.584e-010
1.212e+000 6.259e-001 -1.593e-010
1.414e+000 5.734e-001 -1.597e-010
1.616e+000 5.286e-001 -1.594e-010
1.818e+000 4.915e-001 -1.582e-010
2.020e+000 4.620e-001 -1.556e-010
2.222e+000 4.400e-001 -1.515e-010
2.424e+000 4.252e-001 -1.457e-010
2.626e+000 4.175e-001 -1.380e-010
2.828e+000 4.164e-001 -1.282e-010
3.030e+000 4.215e-001 -1.163e-010
3.232e+000 4.322e-001 -1.022e-010
3.434e+000 4.477e-001 -8.618e-011
3.636e+000 4.675e-001 -6.825e-011
3.838e+000 4.905e-001 -4.871e-011
4.040e+000 5.159e-001 -2.791e-011
4.242e+000 5.426e-001 -6.316e-012
4.444e+000 5.696e-001 1.553e-011
4.646e+000 5.959e-001 3.702e-011
4.848e+000 6.204e-001 5.746e-011
5.051e+000 6.421e-001 7.620e-011
5.253e+000 6.601e-001 9.255e-011
5.455e+000 6.737e-001 1.059e-010
5.657e+000 6.822e-001 1.158e-010
5.859e+000 6.852e-001 1.219e-010
6.061e+000 6.823e-001 1.239e-010
6.263e+000 6.734e-001 1.218e-010
6.465e+000 6.586e-001 1.159e-010
6.667e+000 6.383e-001 1.064e-010
6.869e+000 6.128e-001 9.385e-011
7.071e+000 5.829e-001 7.889e-011
7.273e+000 5.491e-001 6.215e-011
7.475e+000 5.124e-001 4.433e-011
7.677e+000 4.735e-001 2.613e-011
7.879e+000 4.334e-001 8.195e-012
8.081e+000 3.928e-001 -8.908e-012
8.283e+000 3.527e-001 -2.469e-011
8.485e+000 3.138e-001 -3.877e-011
8.687e+000 2.768e-001 -5.086e-011
8.889e+000 2.422e-001 -6.079e-011
9.091e+000 2.105e-001 -6.847e-011
9.293e+000 1.821e-001 -7.388e-011
9.495e+000 1.573e-001 -7.707e-011
9.697e+000 1.362e-001 -7.815e-011
9.899e+000 1.188e-001 -7.728e-011
1.010e+001 1.052e-001 -7.462e-011
1.030e+001 9.512e-002 -7.040e-011
1.051e+001 8.846e-002 -6.482e-011
1.071e+001 8.492e-002 -5.813e-011
1.091e+001 8.417e-002 -5.056e-011
1.111e+001 8.586e-002 -4.233e-011
1.131e+001 8.959e-002 -3.365e-011
1.152e+001 9.493e-002 -2.475e-011
1.172e+001 1.015e-001 -1.581e-011
1.192e+001 1.088e-001 -7.021e-012
1.212e+001 1.164e-001 1.429e-012
1.232e+001 1.240e-001 9.365e-012
1.253e+001 1.311e-001 1.662e-011
1.273e+001 1.374e-001 2.303e-011
1.293e+001 1.426e-001 2.845e-011
1.313e+001 1.464e-001 3.275e-011
1.333e+001 1.487e-001 3.582e-011
1.354e+001 1.492e-001 3.759e-011
1.374e+001 1.480e-001 3.802e-011
1.394e+001 1.449e-001 3.711e-011
1.414e+001 1.400e-001 3.493e-011
1.434e+001 1.334e-001 3.158e-011
1.455e+001 1.253e-001 2.720e-011
1.475e+001 1.159e-001 2.198e-011
1.495e+001 1.055e-001 1.615e-011
1.515e+001 9.426e-002 9.935e-012
1.535e+001 8.255e-002 3.568e-012
1.556e+001 7.067e-002 -2.723e-012
1.576e+001 5.892e-002 -8.733e-012
1.596e+001 4.760e-002 -1.429e-011
1.616e+001 3.696e-002 -1.924e-011
1.636e+001 2.724e-002 -2.351e-011
1.657e+001 1.866e-002 -2.703e-011
1.677e+001 1.138e-002 -2.979e-011
1.697e+001 5.526e-003 -3.181e-011
1.717e+001 1.208e-003 -3.313e-011
1.737e+001 -1.517e-003 -3.382e-011
1.758e+001 -2.614e-003 -3.396e-011
1.778e+001 -2.077e-003 -3.365e-011
1.798e+001 7.931e-005 -3.298e-011
1.818e+001 3.823e-003 -3.203e-011
1.838e+001 9.107e-003 -3.091e-011
1.859e+001 1.588e-002 -2.968e-011
1.879e+001 2.408e-002 -2.843e-011
1.899e+001 3.365e-002 -2.718e-011
1.919e+001 4.452e-002 -2.599e-011
1.939e+001 5.665e-002 -2.485e-011
1.960e+001 6.997e-002 -2.377e-011
1.980e+001 8.444e-002 -2.273e-011
2.000e+001 1.000e-001 -2.273e-011
