z [cm]       C [muM]     Rates [nmol/(cm^3 s)]
0.000e+000 2.032e+002 1.074e-008
2.020e-001 2.241e+002 1.074e-008
4.040e-001 2.442e+002 1.066e-008
6.061e-001 2.633e+002 1.057e-008
8.081e-001 2.816e+002 1.048e-008
1.010e+000 2.990e+002 1.037e-008
1.212e+000 3.155e+002 1.025e-008
1.414e+000 3.312e+002 1.012e-008
1.616e+000 3.460e+002 9.955e-009
1.818e+000 3.601e+002 9.771e-009
2.020e+000 3.733e+002 9.561e-009
2.222e+000 3.857e+002 9.324e-009
2.424e+000 3.973e+002 9.060e-009
2.626e+000 4.081e+002 8.768e-009
2.828e+000 4.183e+002 8.451e-009
3.030e+000 4.277e+002 8.110e-009
3.232e+000 4.365e+002 7.748e-009
3.434e+000 4.446e+002 7.366e-009
3.636e+000 4.521e+002 6.968e-009
3.838e+000 4.590e+002 6.559e-009
4.040e+000 4.654e+002 6.141e-009
4.242e+000 4.713e+002 5.719e-009
4.444e+000 4.767e+002 5.296e-009
4.646e+000 4.816e+002 4.877e-009
4.848e+000 4.861e+002 4.465e-009
5.051e+000 4.903e+002 4.064e-009
5.253e+000 4.942e+002 3.676e-009
5.455e+000 4.977e+002 3.305e-009
5.657e+000 5.009e+002 2.953e-009
5.859e+000 5.039e+002 2.621e-009
6.061e+000 5.067e+002 2.311e-009
6.263e+000 5.093e+002 2.023e-009
6.465e+000 5.117e+002 1.756e-009
6.667e+000 5.140e+002 1.512e-009
6.869e+000 5.162e+002 1.288e-009
7.071e+000 5.182e+002 1.084e-009
7.273e+000 5.202e+002 8.971e-010
7.475e+000 5.221e+002 7.266e-010
7.677e+000 5.239e+002 5.704e-010
7.879e+000 5.257e+002 4.269e-010
8.081e+000 5.274e+002 2.942e-010
8.283e+000 5.291e+002 1.712e-010
8.485e+000 5.308e+002 5.649e-011
8.687e+000 5.325e+002 -5.070e-011
8.889e+000 5.342e+002 -1.510e-010
9.091e+000 5.359e+002 -2.446e-010
9.293e+000 5.376e+002 -3.315e-010
9.495e+000 5.394e+002 -4.113e-010
9.697e+000 5.412e+002 -4.837e-010
9.899e+000 5.430e+002 -5.476e-010
1.010e+001 5.449e+002 -6.024e-010
1.030e+001 5.468e+002 -6.467e-010
1.051e+001 5.488e+002 -6.797e-010
1.071e+001 5.509e+002 -7.000e-010
1.091e+001 5.530e+002 -7.067e-010
1.111e+001 5.551e+002 -6.988e-010
1.131e+001 5.573e+002 -6.754e-010
1.152e+001 5.596e+002 -6.361e-010
1.172e+001 5.619e+002 -5.806e-010
1.192e+001 5.643e+002 -5.089e-010
1.212e+001 5.667e+002 -4.214e-010
1.232e+001 5.692e+002 -3.189e-010
1.253e+001 5.716e+002 -2.025e-010
1.273e+001 5.741e+002 -7.376e-011
1.293e+001 5.766e+002 6.558e-011
1.313e+001 5.791e+002 2.134e-010
1.333e+001 5.816e+002 3.676e-010
1.354e+001 5.841e+002 5.257e-010
1.374e+001 5.865e+002 6.852e-010
1.394e+001 5.888e+002 8.437e-010
1.414e+001 5.911e+002 9.988e-010
1.434e+001 5.933e+002 1.148e-009
1.455e+001 5.954e+002 1.290e-009
1.475e+001 5.974e+002 1.421e-009
1.495e+001 5.992e+002 1.542e-009
1.515e+001 6.010e+002 1.650e-009
1.535e+001 6.026e+002 1.744e-009
1.556e+001 6.040e+002 1.824e-009
1.576e+001 6.053e+002 1.889e-009
1.596e+001 6.065e+002 1.939e-009
1.616e+001 6.075e+002 1.976e-009
1.636e+001 6.083e+002 1.999e-009
1.657e+001 6.090e+002 2.009e-009
1.677e+001 6.095e+002 2.009e-009
1.697e+001 6.098e+002 1.999e-009
1.717e+001 6.099e+002 1.982e-009
1.737e+001 6.099e+002 1.958e-009
1.758e+001 6.098e+002 1.930e-009
1.778e+001 6.094e+002 1.900e-009
1.798e+001 6.089e+002 1.867e-009
1.818e+001 6.083e+002 1.835e-009
1.838e+001 6.075e+002 1.803e-009
1.859e+001 6.065e+002 1.773e-009
1.879e+001 6.055e+002 1.745e-009
1.899e+001 6.042e+002 1.719e-009
1.919e+001 6.028e+002 1.695e-009
1.939e+001 6.013e+002 1.672e-009
1.960e+001 5.996e+002 1.652e-009
1.980e+001 5.978e+002 1.632e-009
2.000e+001 5.959e+002 1.632e-009
