z [cm]       C [muM]     Rates [nmol/(cm^3 s)]
0.000e+000 1.247e+002 -3.517e-008
2.020e-001 1.093e+002 -3.517e-008
4.040e-001 9.504e+001 -3.535e-008
6.061e-001 8.180e+001 -3.552e-008
8.081e-001 6.963e+001 -3.565e-008
1.010e+000 5.853e+001 -3.571e-008
1.212e+000 4.849e+001 -3.562e-008
1.414e+000 3.953e+001 -3.532e-008
1.616e+000 3.162e+001 -3.472e-008
1.818e+000 2.476e+001 -3.377e-008
2.020e+000 1.891e+001 -3.242e-008
2.222e+000 1.403e+001 -3.064e-008
2.424e+000 1.007e+001 -2.846e-008
2.626e+000 6.968e+000 -2.592e-008
2.828e+000 4.640e+000 -2.309e-008
3.030e+000 3.005e+000 -2.006e-008
3.232e+000 1.972e+000 -1.693e-008
3.434e+000 1.447e+000 -1.381e-008
3.636e+000 1.337e+000 -1.079e-008
3.838e+000 1.550e+000 -7.952e-009
4.040e+000 2.002e+000 -5.361e-009
4.242e+000 2.614e+000 -3.070e-009
4.444e+000 3.319e+000 -1.113e-009
4.646e+000 4.057e+000 4.948e-010
4.848e+000 4.780e+000 1.753e-009
5.051e+000 5.451e+000 2.675e-009
5.253e+000 6.041e+000 3.285e-009
5.455e+000 6.533e+000 3.616e-009
5.657e+000 6.917e+000 3.707e-009
5.859e+000 7.189e+000 3.598e-009
6.061e+000 7.353e+000 3.334e-009
6.263e+000 7.417e+000 2.955e-009
6.465e+000 7.393e+000 2.501e-009
6.667e+000 7.293e+000 2.007e-009
6.869e+000 7.134e+000 1.504e-009
7.071e+000 6.929e+000 1.019e-009
7.273e+000 6.693e+000 5.700e-010
7.475e+000 6.441e+000 1.730e-010
7.677e+000 6.183e+000 -1.628e-010
7.879e+000 5.931e+000 -4.330e-010
8.081e+000 5.691e+000 -6.368e-010
8.283e+000 5.470e+000 -7.770e-010
8.485e+000 5.273e+000 -8.590e-010
8.687e+000 5.101e+000 -8.900e-010
8.889e+000 4.956e+000 -8.783e-010
9.091e+000 4.838e+000 -8.326e-010
9.293e+000 4.744e+000 -7.616e-010
9.495e+000 4.673e+000 -6.734e-010
9.697e+000 4.623e+000 -5.754e-010
9.899e+000 4.590e+000 -4.739e-010
1.010e+001 4.571e+000 -3.742e-010
1.030e+001 4.563e+000 -2.803e-010
1.051e+001 4.563e+000 -1.955e-010
1.071e+001 4.570e+000 -1.218e-010
1.091e+001 4.580e+000 -6.036e-011
1.111e+001 4.592e+000 -1.147e-011
1.131e+001 4.604e+000 2.519e-011
1.152e+001 4.616e+000 5.054e-011
1.172e+001 4.626e+000 6.589e-011
1.192e+001 4.634e+000 7.281e-011
1.212e+001 4.640e+000 7.303e-011
1.232e+001 4.643e+000 6.826e-011
1.253e+001 4.645e+000 6.017e-011
1.273e+001 4.645e+000 5.024e-011
1.293e+001 4.643e+000 3.976e-011
1.313e+001 4.640e+000 2.977e-011
1.333e+001 4.636e+000 2.105e-011
1.354e+001 4.632e+000 1.411e-011
1.374e+001 4.627e+000 9.213e-012
1.394e+001 4.622e+000 6.357e-012
1.414e+001 4.617e+000 5.342e-012
1.434e+001 4.611e+000 5.787e-012
1.455e+001 4.606e+000 7.165e-012
1.475e+001 4.600e+000 8.853e-012
1.495e+001 4.594e+000 1.017e-011
1.515e+001 4.587e+000 1.042e-011
1.535e+001 4.580e+000 8.957e-012
1.556e+001 4.573e+000 5.196e-012
1.576e+001 4.566e+000 -1.324e-012
1.596e+001 4.559e+000 -1.091e-011
1.616e+001 4.552e+000 -2.371e-011
1.636e+001 4.546e+000 -3.968e-011
1.657e+001 4.541e+000 -5.857e-011
1.677e+001 4.538e+000 -8.000e-011
1.697e+001 4.537e+000 -1.034e-010
1.717e+001 4.540e+000 -1.282e-010
1.737e+001 4.546e+000 -1.538e-010
1.758e+001 4.557e+000 -1.794e-010
1.778e+001 4.573e+000 -2.045e-010
1.798e+001 4.595e+000 -2.288e-010
1.818e+001 4.625e+000 -2.519e-010
1.838e+001 4.661e+000 -2.737e-010
1.859e+001 4.706e+000 -2.944e-010
1.879e+001 4.760e+000 -3.141e-010
1.899e+001 4.823e+000 -3.329e-010
1.919e+001 4.897e+000 -3.511e-010
1.939e+001 4.980e+000 -3.687e-010
1.960e+001 5.075e+000 -3.858e-010
1.980e+001 5.182e+000 -4.025e-010
2.000e+001 5.300e+000 -4.025e-010
