z [cm]       C [muM]     Rates [nmol/(cm^3 s)]
0.000e+000 2.610e+001 4.063e-009
2.020e-001 4.107e+001 4.063e-009
4.040e-001 5.585e+001 3.862e-009
6.061e-001 7.046e+001 3.654e-009
8.081e-001 8.490e+001 3.430e-009
1.010e+000 9.920e+001 3.187e-009
1.212e+000 1.133e+002 2.917e-009
1.414e+000 1.274e+002 2.619e-009
1.616e+000 1.413e+002 2.289e-009
1.818e+000 1.551e+002 1.928e-009
2.020e+000 1.688e+002 1.537e-009
2.222e+000 1.824e+002 1.120e-009
2.424e+000 1.960e+002 6.825e-010
2.626e+000 2.096e+002 2.306e-010
2.828e+000 2.231e+002 -2.267e-010
3.030e+000 2.367e+002 -6.798e-010
3.232e+000 2.502e+002 -1.118e-009
3.434e+000 2.639e+002 -1.530e-009
3.636e+000 2.776e+002 -1.905e-009
3.838e+000 2.914e+002 -2.231e-009
4.040e+000 3.053e+002 -2.498e-009
4.242e+000 3.193e+002 -2.697e-009
4.444e+000 3.334e+002 -2.818e-009
4.646e+000 3.477e+002 -2.855e-009
4.848e+000 3.621e+002 -2.804e-009
5.051e+000 3.766e+002 -2.660e-009
5.253e+000 3.912e+002 -2.422e-009
5.455e+000 4.059e+002 -2.092e-009
5.657e+000 4.208e+002 -1.674e-009
5.859e+000 4.357e+002 -1.172e-009
6.061e+000 4.506e+002 -5.947e-010
6.263e+000 4.656e+002 4.756e-011
6.465e+000 4.806e+002 7.431e-010
6.667e+000 4.956e+002 1.479e-009
6.869e+000 5.104e+002 2.240e-009
7.071e+000 5.252e+002 3.012e-009
7.273e+000 5.399e+002 3.780e-009
7.475e+000 5.543e+002 4.531e-009
7.677e+000 5.686e+002 5.253e-009
7.879e+000 5.827e+002 5.933e-009
8.081e+000 5.964e+002 6.564e-009
8.283e+000 6.099e+002 7.138e-009
8.485e+000 6.231e+002 7.653e-009
8.687e+000 6.359e+002 8.107e-009
8.889e+000 6.483e+002 8.500e-009
9.091e+000 6.604e+002 8.835e-009
9.293e+000 6.721e+002 9.115e-009
9.495e+000 6.833e+002 9.345e-009
9.697e+000 6.941e+002 9.529e-009
9.899e+000 7.046e+002 9.673e-009
1.010e+001 7.145e+002 9.781e-009
1.030e+001 7.241e+002 9.858e-009
1.051e+001 7.331e+002 9.907e-009
1.071e+001 7.418e+002 9.929e-009
1.091e+001 7.500e+002 9.927e-009
1.111e+001 7.577e+002 9.900e-009
1.131e+001 7.650e+002 9.848e-009
1.152e+001 7.719e+002 9.769e-009
1.172e+001 7.783e+002 9.662e-009
1.192e+001 7.843e+002 9.523e-009
1.212e+001 7.899e+002 9.352e-009
1.232e+001 7.950e+002 9.144e-009
1.253e+001 7.998e+002 8.898e-009
1.273e+001 8.041e+002 8.612e-009
1.293e+001 8.080e+002 8.284e-009
1.313e+001 8.116e+002 7.914e-009
1.333e+001 8.148e+002 7.501e-009
1.354e+001 8.177e+002 7.046e-009
1.374e+001 8.202e+002 6.551e-009
1.394e+001 8.225e+002 6.018e-009
1.414e+001 8.245e+002 5.450e-009
1.434e+001 8.262e+002 4.852e-009
1.455e+001 8.278e+002 4.229e-009
1.475e+001 8.291e+002 3.588e-009
1.495e+001 8.303e+002 2.935e-009
1.515e+001 8.313e+002 2.276e-009
1.535e+001 8.323e+002 1.621e-009
1.556e+001 8.332e+002 9.748e-010
1.576e+001 8.340e+002 3.461e-010
1.596e+001 8.348e+002 -2.589e-010
1.616e+001 8.356e+002 -8.339e-010
1.636e+001 8.365e+002 -1.373e-009
1.657e+001 8.374e+002 -1.873e-009
1.677e+001 8.384e+002 -2.329e-009
1.697e+001 8.395e+002 -2.738e-009
1.717e+001 8.408e+002 -3.099e-009
1.737e+001 8.421e+002 -3.411e-009
1.758e+001 8.437e+002 -3.675e-009
1.778e+001 8.453e+002 -3.892e-009
1.798e+001 8.472e+002 -4.065e-009
1.818e+001 8.493e+002 -4.198e-009
1.838e+001 8.515e+002 -4.293e-009
1.859e+001 8.539e+002 -4.357e-009
1.879e+001 8.566e+002 -4.396e-009
1.899e+001 8.594e+002 -4.413e-009
1.919e+001 8.624e+002 -4.417e-009
1.939e+001 8.656e+002 -4.410e-009
1.960e+001 8.691e+002 -4.399e-009
1.980e+001 8.727e+002 -4.386e-009
2.000e+001 8.765e+002 -4.386e-009
