z [cm]       C [muM]     Rates [nmol/(cm^3 s)]
0.000e+000 5.000e-001 8.635e-012
2.273e-001 5.062e-001 8.635e-012
4.545e-001 5.117e-001 8.764e-012
6.818e-001 5.166e-001 8.894e-012
9.091e-001 5.208e-001 9.023e-012
1.136e+000 5.244e-001 9.144e-012
1.364e+000 5.273e-001 9.253e-012
1.591e+000 5.295e-001 9.341e-012
1.818e+000 5.310e-001 9.402e-012
2.045e+000 5.318e-001 9.427e-012
2.273e+000 5.320e-001 9.411e-012
2.500e+000 5.314e-001 9.347e-012
2.727e+000 5.302e-001 9.230e-012
2.955e+000 5.283e-001 9.056e-012
3.182e+000 5.257e-001 8.820e-012
3.409e+000 5.224e-001 8.519e-012
3.636e+000 5.186e-001 8.153e-012
3.864e+000 5.141e-001 7.720e-012
4.091e+000 5.091e-001 7.220e-012
4.318e+000 5.035e-001 6.655e-012
4.545e+000 4.974e-001 6.029e-012
4.773e+000 4.909e-001 5.347e-012
5.000e+000 4.840e-001 4.613e-012
5.227e+000 4.768e-001 3.837e-012
5.455e+000 4.693e-001 3.027e-012
5.682e+000 4.615e-001 2.194e-012
5.909e+000 4.536e-001 1.347e-012
6.136e+000 4.456e-001 4.984e-013
6.364e+000 4.376e-001 -3.402e-013
6.591e+000 4.296e-001 -1.158e-012
6.818e+000 4.217e-001 -1.944e-012
7.045e+000 4.139e-001 -2.688e-012
7.273e+000 4.063e-001 -3.381e-012
7.500e+000 3.990e-001 -4.017e-012
7.727e+000 3.919e-001 -4.588e-012
7.955e+000 3.852e-001 -5.089e-012
8.182e+000 3.789e-001 -5.516e-012
8.409e+000 3.730e-001 -5.868e-012
8.636e+000 3.675e-001 -6.141e-012
8.864e+000 3.624e-001 -6.336e-012
9.091e+000 3.579e-001 -6.453e-012
9.318e+000 3.538e-001 -6.494e-012
9.545e+000 3.501e-001 -6.462e-012
9.773e+000 3.470e-001 -6.361e-012
1.000e+001 3.443e-001 -6.194e-012
1.023e+001 3.421e-001 -5.966e-012
1.045e+001 3.403e-001 -5.684e-012
1.068e+001 3.390e-001 -5.352e-012
1.091e+001 3.380e-001 -4.979e-012
1.114e+001 3.374e-001 -4.572e-012
1.136e+001 3.371e-001 -4.136e-012
1.159e+001 3.372e-001 -3.681e-012
1.182e+001 3.375e-001 -3.213e-012
1.205e+001 3.380e-001 -2.741e-012
1.227e+001 3.388e-001 -2.270e-012
1.250e+001 3.397e-001 -1.807e-012
1.273e+001 3.408e-001 -1.358e-012
1.295e+001 3.419e-001 -9.287e-013
1.318e+001 3.431e-001 -5.221e-013
1.341e+001 3.444e-001 -1.415e-013
1.364e+001 3.457e-001 2.113e-013
1.386e+001 3.469e-001 5.354e-013
1.409e+001 3.481e-001 8.312e-013
1.432e+001 3.493e-001 1.100e-012
1.455e+001 3.503e-001 1.344e-012
1.477e+001 3.513e-001 1.567e-012
1.500e+001 3.522e-001 1.773e-012
1.523e+001 3.529e-001 1.966e-012
1.545e+001 3.535e-001 2.151e-012
1.568e+001 3.539e-001 2.333e-012
1.591e+001 3.541e-001 2.518e-012
1.614e+001 3.542e-001 2.710e-012
1.636e+001 3.541e-001 2.913e-012
1.659e+001 3.537e-001 3.132e-012
1.682e+001 3.532e-001 3.369e-012
1.705e+001 3.523e-001 3.626e-012
1.727e+001 3.512e-001 3.904e-012
1.750e+001 3.499e-001 4.203e-012
1.773e+001 3.482e-001 4.520e-012
1.795e+001 3.461e-001 4.855e-012
1.818e+001 3.438e-001 5.204e-012
1.841e+001 3.410e-001 5.563e-012
1.864e+001 3.378e-001 5.926e-012
1.886e+001 3.342e-001 6.288e-012
1.909e+001 3.301e-001 6.643e-012
1.932e+001 3.256e-001 6.986e-012
1.955e+001 3.205e-001 7.308e-012
1.977e+001 3.149e-001 7.606e-012
2.000e+001 3.087e-001 7.874e-012
2.023e+001 3.019e-001 8.108e-012
2.045e+001 2.946e-001 8.306e-012
2.068e+001 2.866e-001 8.466e-012
2.091e+001 2.780e-001 8.588e-012
2.114e+001 2.688e-001 8.676e-012
2.136e+001 2.590e-001 8.733e-012
2.159e+001 2.485e-001 8.765e-012
2.182e+001 2.373e-001 8.779e-012
2.205e+001 2.255e-001 8.782e-012
2.227e+001 2.131e-001 8.780e-012
2.250e+001 2.000e-001 8.780e-012
