z [cm]       C [muM]     Rates [nmol/(cm^3 s)]
0.000e+000 8.310e+001 4.929e-008
4.545e-002 9.232e+001 4.929e-008
9.091e-002 1.013e+002 4.868e-008
1.364e-001 1.101e+002 4.807e-008
1.818e-001 1.187e+002 4.746e-008
2.273e-001 1.271e+002 4.684e-008
2.727e-001 1.353e+002 4.622e-008
3.182e-001 1.433e+002 4.560e-008
3.636e-001 1.511e+002 4.496e-008
4.091e-001 1.588e+002 4.432e-008
4.545e-001 1.662e+002 4.367e-008
5.000e-001 1.735e+002 4.301e-008
5.455e-001 1.805e+002 4.235e-008
5.909e-001 1.874e+002 4.167e-008
6.364e-001 1.942e+002 4.098e-008
6.818e-001 2.007e+002 4.028e-008
7.273e-001 2.071e+002 3.957e-008
7.727e-001 2.133e+002 3.886e-008
8.182e-001 2.193e+002 3.813e-008
8.636e-001 2.252e+002 3.739e-008
9.091e-001 2.309e+002 3.665e-008
9.545e-001 2.365e+002 3.590e-008
1.000e+000 2.419e+002 3.514e-008
1.045e+000 2.472e+002 3.437e-008
1.091e+000 2.523e+002 3.360e-008
1.136e+000 2.573e+002 3.282e-008
1.182e+000 2.622e+002 3.205e-008
1.227e+000 2.669e+002 3.127e-008
1.273e+000 2.715e+002 3.048e-008
1.318e+000 2.759e+002 2.970e-008
1.364e+000 2.803e+002 2.892e-008
1.409e+000 2.845e+002 2.814e-008
1.455e+000 2.886e+002 2.736e-008
1.500e+000 2.925e+002 2.659e-008
1.545e+000 2.964e+002 2.582e-008
1.591e+000 3.001e+002 2.506e-008
1.636e+000 3.038e+002 2.430e-008
1.682e+000 3.073e+002 2.356e-008
1.727e+000 3.108e+002 2.282e-008
1.773e+000 3.141e+002 2.209e-008
1.818e+000 3.174e+002 2.137e-008
1.864e+000 3.205e+002 2.066e-008
1.909e+000 3.236e+002 1.996e-008
1.955e+000 3.266e+002 1.927e-008
2.000e+000 3.295e+002 1.859e-008
2.045e+000 3.324e+002 1.793e-008
2.091e+000 3.351e+002 1.728e-008
2.136e+000 3.378e+002 1.664e-008
2.182e+000 3.404e+002 1.601e-008
2.227e+000 3.430e+002 1.540e-008
2.273e+000 3.455e+002 1.480e-008
2.318e+000 3.479e+002 1.422e-008
2.364e+000 3.502e+002 1.364e-008
2.409e+000 3.525e+002 1.308e-008
2.455e+000 3.548e+002 1.253e-008
2.500e+000 3.570e+002 1.200e-008
2.545e+000 3.591e+002 1.148e-008
2.591e+000 3.612e+002 1.097e-008
2.636e+000 3.633e+002 1.048e-008
2.682e+000 3.653e+002 9.993e-009
2.727e+000 3.673e+002 9.522e-009
2.773e+000 3.692e+002 9.064e-009
2.818e+000 3.711e+002 8.617e-009
2.864e+000 3.729e+002 8.183e-009
2.909e+000 3.747e+002 7.761e-009
2.955e+000 3.765e+002 7.350e-009
3.000e+000 3.783e+002 6.950e-009
3.045e+000 3.800e+002 6.562e-009
3.091e+000 3.817e+002 6.184e-009
3.136e+000 3.833e+002 5.817e-009
3.182e+000 3.850e+002 5.461e-009
3.227e+000 3.866e+002 5.115e-009
3.273e+000 3.882e+002 4.779e-009
3.318e+000 3.898e+002 4.453e-009
3.364e+000 3.913e+002 4.136e-009
3.409e+000 3.929e+002 3.828e-009
3.455e+000 3.944e+002 3.529e-009
3.500e+000 3.959e+002 3.239e-009
3.545e+000 3.974e+002 2.957e-009
3.591e+000 3.989e+002 2.683e-009
3.636e+000 4.004e+002 2.416e-009
3.682e+000 4.019e+002 2.157e-009
3.727e+000 4.033e+002 1.905e-009
3.773e+000 4.048e+002 1.659e-009
3.818e+000 4.062e+002 1.420e-009
3.864e+000 4.076e+002 1.186e-009
3.909e+000 4.091e+002 9.574e-010
3.955e+000 4.105e+002 7.341e-010
4.000e+000 4.119e+002 5.153e-010
4.045e+000 4.133e+002 3.007e-010
4.091e+000 4.147e+002 8.985e-011
4.136e+000 4.162e+002 -1.176e-010
4.182e+000 4.176e+002 -3.221e-010
4.227e+000 4.190e+002 -5.242e-010
4.273e+000 4.204e+002 -7.241e-010
4.318e+000 4.219e+002 -9.223e-010
4.364e+000 4.233e+002 -1.119e-009
4.409e+000 4.247e+002 -1.316e-009
4.455e+000 4.262e+002 -1.511e-009
4.500e+000 4.276e+002 -1.511e-009
