z [cm]       C [muM]     Rates [nmol/(cm^3 s)]
0.000e+000 5.000e-001 -2.495e-010
2.273e-001 2.358e-001 -2.495e-010
4.545e-001 3.024e-002 -2.756e-010
6.818e-001 -1.105e-001 -3.027e-010
9.091e-001 -1.801e-001 -3.314e-010
1.136e+000 -1.717e-001 -3.621e-010
1.364e+000 -7.815e-002 -3.947e-010
1.591e+000 1.082e-001 -4.290e-010
1.818e+000 3.955e-001 -4.643e-010
2.045e+000 7.919e-001 -4.998e-010
2.273e+000 1.306e+000 -5.343e-010
2.500e+000 1.946e+000 -5.665e-010
2.727e+000 2.718e+000 -5.950e-010
2.955e+000 3.631e+000 -6.182e-010
3.182e+000 4.689e+000 -6.347e-010
3.409e+000 5.897e+000 -6.431e-010
3.636e+000 7.255e+000 -6.420e-010
3.864e+000 8.765e+000 -6.303e-010
4.091e+000 1.042e+001 -6.071e-010
4.318e+000 1.222e+001 -5.719e-010
4.545e+000 1.416e+001 -5.246e-010
4.773e+000 1.622e+001 -4.655e-010
5.000e+000 1.839e+001 -3.954e-010
5.227e+000 2.065e+001 -3.158e-010
5.455e+000 2.298e+001 -2.284e-010
5.682e+000 2.537e+001 -1.354e-010
5.909e+000 2.779e+001 -3.926e-011
6.136e+000 3.022e+001 5.729e-011
6.364e+000 3.264e+001 1.517e-010
6.591e+000 3.502e+001 2.414e-010
6.818e+000 3.734e+001 3.242e-010
7.045e+000 3.959e+001 3.981e-010
7.273e+000 4.174e+001 4.618e-010
7.500e+000 4.379e+001 5.142e-010
7.727e+000 4.572e+001 5.548e-010
7.955e+000 4.751e+001 5.832e-010
8.182e+000 4.917e+001 5.998e-010
8.409e+000 5.068e+001 6.049e-010
8.636e+000 5.206e+001 5.994e-010
8.864e+000 5.329e+001 5.841e-010
9.091e+000 5.438e+001 5.603e-010
9.318e+000 5.535e+001 5.293e-010
9.545e+000 5.619e+001 4.923e-010
9.773e+000 5.691e+001 4.509e-010
1.000e+001 5.753e+001 4.063e-010
1.023e+001 5.805e+001 3.598e-010
1.045e+001 5.849e+001 3.127e-010
1.068e+001 5.885e+001 2.658e-010
1.091e+001 5.915e+001 2.202e-010
1.114e+001 5.940e+001 1.765e-010
1.136e+001 5.961e+001 1.352e-010
1.159e+001 5.978e+001 9.691e-011
1.182e+001 5.994e+001 6.175e-011
1.205e+001 6.008e+001 2.991e-011
1.227e+001 6.021e+001 1.413e-012
1.250e+001 6.034e+001 -2.379e-011
1.273e+001 6.048e+001 -4.581e-011
1.295e+001 6.062e+001 -6.482e-011
1.318e+001 6.079e+001 -8.101e-011
1.341e+001 6.097e+001 -9.454e-011
1.364e+001 6.117e+001 -1.056e-010
1.386e+001 6.140e+001 -1.141e-010
1.409e+001 6.166e+001 -1.202e-010
1.432e+001 6.194e+001 -1.237e-010
1.455e+001 6.226e+001 -1.244e-010
1.477e+001 6.260e+001 -1.219e-010
1.500e+001 6.297e+001 -1.158e-010
1.523e+001 6.337e+001 -1.056e-010
1.545e+001 6.379e+001 -9.083e-011
1.568e+001 6.424e+001 -7.088e-011
1.591e+001 6.470e+001 -4.535e-011
1.614e+001 6.517e+001 -1.394e-011
1.636e+001 6.564e+001 2.348e-011
1.659e+001 6.611e+001 6.684e-011
1.682e+001 6.657e+001 1.158e-010
1.705e+001 6.700e+001 1.698e-010
1.727e+001 6.738e+001 2.280e-010
1.750e+001 6.772e+001 2.893e-010
1.773e+001 6.798e+001 3.527e-010
1.795e+001 6.816e+001 4.167e-010
1.818e+001 6.825e+001 4.801e-010
1.841e+001 6.822e+001 5.415e-010
1.864e+001 6.806e+001 5.998e-010
1.886e+001 6.777e+001 6.537e-010
1.909e+001 6.731e+001 7.026e-010
1.932e+001 6.670e+001 7.456e-010
1.955e+001 6.591e+001 7.822e-010
1.977e+001 6.493e+001 8.122e-010
2.000e+001 6.377e+001 8.354e-010
2.023e+001 6.240e+001 8.520e-010
2.045e+001 6.084e+001 8.623e-010
2.068e+001 5.907e+001 8.669e-010
2.091e+001 5.710e+001 8.667e-010
2.114e+001 5.493e+001 8.624e-010
2.136e+001 5.255e+001 8.553e-010
2.159e+001 4.998e+001 8.463e-010
2.182e+001 4.720e+001 8.362e-010
2.205e+001 4.423e+001 8.258e-010
2.227e+001 4.106e+001 8.154e-010
2.250e+001 3.770e+001 8.154e-010
